        单轴间接拉伸试验结果报告

       二进制结果文件存放路径:C:\Documents and Settings\Owner\桌面\BTLS-1-6.uit
       文本结果文件存放路径:C:\Documents and Settings\Owner\桌面\BTLS-1-6.txt
       试验开始时间: 09:30:19,04/23/2019
       试件类型:圆柱体    直径:49.7 mm    高:23.0 mm
       相关传感器: 垂直向100KN力传感器(测试件垂直力)
                  垂直向50MM行程传感器(测试件垂直变形)
                  两个水平向2.5MM位移传感器(测试件横向变形)
       步骤:1    控制模式:力    波形:斜坡
       速率:0.20 KN/s    终点:0.000 KN
组号 时间(ms) 垂直力(KN) 垂直变形(mm) 横向变形(mm)
0	0	0.000       0.00000       0.0000 
1	204	0.000       0.00097       0.0001 
2	346	0.014       0.00097       0.0001 
3	446	0.036       0.00291       0.0002 
4	546	0.059       0.00388       0.0003 
5	646	0.084       0.00582       0.0004 
6	746	0.104       0.00776       0.0007 
7	846	0.122       0.01067       0.0011 
8	946	0.149       0.01261       0.0015 
9	1046	0.172       0.01649       0.0018 
10	1146	0.197       0.01940       0.0024 
11	1246	0.222       0.02328       0.0029 
12	1346	0.242       0.02619       0.0034 
13	1446	0.267       0.02910       0.0038 
14	1546	0.290       0.03201       0.0043 
15	1646	0.319       0.03589       0.0048 
16	1746	0.342       0.03880       0.0051 
17	1846	0.367       0.04171       0.0056 
18	1946	0.392       0.04462       0.0063 
19	2046	0.419       0.04656       0.0068 
20	2146	0.448       0.04947       0.0074 
21	2246	0.471       0.05044       0.0080 
22	2346	0.498       0.05529       0.0083 
23	2446	0.523       0.05820       0.0088 
24	2546	0.550       0.06111       0.0091 
25	2646	0.579       0.06402       0.0095 
26	2746	0.600       0.06693       0.0098 
27	2846	0.620       0.06790       0.0101 
28	2946	0.641       0.06887       0.0104 
29	3046	0.670       0.07275       0.0107 
30	3146	0.688       0.07275       0.0109 
31	3246	0.709       0.07663       0.0111 
32	3346	0.733       0.07954       0.0114 
33	3446	0.756       0.08051       0.0116 
34	3546	0.779       0.08342       0.0119 
35	3646	0.806       0.08536       0.0122 
36	3746	0.826       0.08633       0.0125 
37	3846	0.849       0.08924       0.0127 
38	3946	0.869       0.09215       0.0129 
39	4046	0.894       0.09312       0.0132 
40	4146	0.919       0.09603       0.0135 
41	4246	0.939       0.09700       0.0138 
42	4346	0.967       0.09991       0.0140 
43	4446	0.987       0.10088       0.0142 
44	4546	1.007       0.10282       0.0144 
45	4646	1.028       0.10476       0.0146 
46	4746	1.053       0.10767       0.0147 
47	4846	1.075       0.10864       0.0148 
48	4946	1.098       0.11058       0.0150 
49	5046	1.123       0.11349       0.0151 
50	5146	1.143       0.11543       0.0153 
51	5246	1.170       0.11737       0.0155 
52	5346	1.195       0.11931       0.0156 
53	5446	1.216       0.12125       0.0158 
54	5546	1.236       0.12222       0.0160 
55	5646	1.259       0.12416       0.0161 
56	5746	1.279       0.12707       0.0163 
57	5846	1.306       0.12901       0.0165 
58	5946	1.326       0.13095       0.0166 
59	6046	1.351       0.13192       0.0167 
60	6146	1.372       0.13192       0.0168 
61	6246	1.397       0.13483       0.0170 
62	6346	1.417       0.13677       0.0171 
63	6446	1.437       0.13774       0.0172 
64	6546	1.462       0.13968       0.0174 
65	6646	1.485       0.14162       0.0175 
66	6746	1.501       0.14259       0.0176 
67	6846	1.528       0.14453       0.0177 
68	6946	1.553       0.14744       0.0178 
69	7046	1.573       0.14841       0.0180 
70	7146	1.598       0.15035       0.0181 
71	7246	1.621       0.15132       0.0182 
72	7346	1.646       0.15423       0.0183 
73	7446	1.668       0.15520       0.0185 
74	7546	1.686       0.15617       0.0185 
75	7646	1.711       0.15811       0.0187 
76	7746	1.732       0.15811       0.0189 
77	7846	1.754       0.16005       0.0189 
78	7946	1.777       0.16199       0.0190 
79	8046	1.804       0.16587       0.0192 
80	8146	1.822       0.16684       0.0194 
81	8246	1.847       0.16878       0.0196 
82	8346	1.870       0.16975       0.0197 
83	8446	1.892       0.17072       0.0198 
84	8546	1.910       0.17169       0.0200 
85	8646	1.935       0.17460       0.0201 
86	8746	1.960       0.17460       0.0202 
87	8846	1.983       0.17654       0.0204 
88	8946	2.006       0.17848       0.0205 
89	9046	2.028       0.17848       0.0207 
90	9146	2.051       0.18333       0.0209 
91	9246	2.073       0.18430       0.0210 
92	9346	2.094       0.18527       0.0212 
93	9446	2.119       0.18624       0.0214 
94	9546	2.141       0.18818       0.0214 
95	9646	2.164       0.19012       0.0217 
96	9746	2.184       0.19109       0.0219 
97	9846	2.209       0.19303       0.0221 
98	9946	2.232       0.19497       0.0222 
99	10046	2.255       0.19691       0.0224 
100	10146	2.277       0.19691       0.0225 
101	10246	2.300       0.19885       0.0228 
102	10346	2.320       0.20273       0.0230 
103	10446	2.343       0.20273       0.0232 
104	10546	2.365       0.20370       0.0235 
105	10646	2.390       0.20564       0.0237 
106	10746	2.411       0.20758       0.0239 
107	10846	2.433       0.20855       0.0241 
108	10946	2.458       0.21049       0.0244 
109	11046	2.479       0.21146       0.0245 
110	11146	2.504       0.21437       0.0247 
111	11246	2.524       0.21534       0.0249 
112	11346	2.547       0.21631       0.0251 
113	11446	2.569       0.21728       0.0253 
114	11546	2.592       0.21825       0.0256 
115	11646	2.612       0.22019       0.0257 
116	11746	2.635       0.22116       0.0260 
117	11846	2.660       0.22213       0.0261 
118	11946	2.685       0.22601       0.0265 
119	12046	2.707       0.22601       0.0266 
120	12146	2.730       0.22795       0.0268 
121	12246	2.753       0.22989       0.0270 
122	12346	2.773       0.23183       0.0271 
123	12446	2.798       0.23183       0.0273 
124	12546	2.820       0.23377       0.0275 
125	12646	2.839       0.23571       0.0277 
126	12746	2.861       0.23765       0.0277 
127	12846	2.882       0.23765       0.0280 
128	12946	2.906       0.23959       0.0283 
129	13046	2.929       0.24056       0.0285 
130	13146	2.954       0.24347       0.0287 
131	13246	2.974       0.24347       0.0290 
132	13346	2.997       0.24541       0.0292 
133	13446	3.020       0.24638       0.0295 
134	13546	3.042       0.24832       0.0298 
135	13646	3.063       0.25026       0.0300 
136	13746	3.090       0.25123       0.0303 
137	13846	3.112       0.25220       0.0305 
138	13946	3.137       0.25511       0.0308 
139	14046	3.158       0.25511       0.0312 
140	14146	3.178       0.25802       0.0314 
141	14246	3.201       0.25705       0.0317 
142	14346	3.223       0.26093       0.0321 
143	14446	3.248       0.26093       0.0323 
144	14546	3.271       0.26384       0.0326 
145	14646	3.296       0.26578       0.0328 
146	14746	3.314       0.26578       0.0331 
147	14846	3.334       0.26772       0.0334 
148	14946	3.357       0.26772       0.0337 
149	15046	3.384       0.27063       0.0340 
150	15146	3.407       0.27160       0.0343 
151	15246	3.427       0.27257       0.0350 
152	15346	3.450       0.27354       0.0375 
153	15446	3.472       0.27451       0.0401 
154	15546	3.493       0.27548       0.0421 
155	15646	3.518       0.27742       0.0437 
156	15746	3.540       0.27936       0.0446 
157	15846	3.558       0.27936       0.0458 
158	15946	3.583       0.28130       0.0475 
159	16046	3.606       0.28324       0.0488 
160	16146	3.629       0.28421       0.0499 
161	16246	3.651       0.28518       0.0507 
162	16346	3.674       0.28712       0.0517 
163	16446	3.696       0.28809       0.0524 
164	16546	3.719       0.29003       0.0528 
165	16646	3.742       0.29197       0.0531 
166	16746	3.767       0.29391       0.0535 
167	16846	3.787       0.29391       0.0538 
168	16946	3.812       0.29682       0.0542 
169	17046	3.835       0.29779       0.0547 
170	17146	3.857       0.29973       0.0552 
171	17246	3.880       0.29973       0.0558 
172	17346	3.902       0.30070       0.0562 
173	17446	3.923       0.30167       0.0566 
174	17546	3.950       0.30458       0.0568 
175	17646	3.968       0.30555       0.0572 
176	17746	3.991       0.30652       0.0574 
177	17846	4.013       0.30846       0.0577 
178	17946	4.038       0.30943       0.0580 
179	18046	4.061       0.31137       0.0583 
180	18146	4.084       0.31331       0.0586 
181	18246	4.106       0.31234       0.0588 
182	18346	4.129       0.31719       0.0591 
183	18446	4.149       0.31719       0.0593 
184	18546	4.170       0.31913       0.0597 
185	18646	4.194       0.31913       0.0599 
186	18746	4.217       0.32010       0.0602 
187	18846	4.242       0.32107       0.0605 
188	18946	4.262       0.32301       0.0608 
189	19046	4.290       0.32398       0.0611 
190	19146	4.308       0.32689       0.0613 
191	19246	4.330       0.32689       0.0616 
192	19346	4.353       0.32883       0.0619 
193	19446	4.376       0.32883       0.0622 
194	19546	4.398       0.32980       0.0626 
195	19646	4.423       0.33174       0.0628 
196	19746	4.446       0.33271       0.0631 
197	19846	4.464       0.33465       0.0634 
198	19946	4.489       0.33659       0.0636 
199	20046	4.511       0.33756       0.0639 
200	20146	4.532       0.33950       0.0643 
201	20246	4.557       0.34047       0.0645 
202	20346	4.577       0.34241       0.0649 
203	20446	4.600       0.34241       0.0651 
204	20546	4.622       0.34338       0.0655 
205	20646	4.645       0.34629       0.0658 
206	20746	4.668       0.34629       0.0662 
207	20846	4.688       0.34920       0.0664 
208	20946	4.708       0.34920       0.0667 
209	21046	4.733       0.35211       0.0670 
210	21146	4.758       0.35308       0.0674 
211	21246	4.781       0.35405       0.0678 
212	21346	4.801       0.35599       0.0680 
213	21446	4.821       0.35793       0.0684 
214	21546	4.846       0.35890       0.0689 
215	21646	4.869       0.36084       0.0693 
216	21746	4.889       0.36084       0.0696 
217	21846	4.910       0.36278       0.0702 
218	21946	4.932       0.36278       0.0707 
219	22046	4.957       0.36472       0.0712 
220	22146	4.975       0.36569       0.0716 
221	22246	4.998       0.36666       0.0720 
222	22346	5.021       0.36763       0.0725 
223	22446	5.043       0.37054       0.0728 
224	22546	5.064       0.37054       0.0731 
225	22646	5.089       0.37345       0.0737 
226	22746	5.107       0.37345       0.0740 
227	22846	5.132       0.37636       0.0745 
228	22946	5.154       0.37830       0.0748 
229	23046	5.175       0.38024       0.0754 
230	23146	5.197       0.38121       0.0756 
231	23246	5.215       0.38218       0.0761 
232	23346	5.240       0.38412       0.0766 
233	23446	5.258       0.38606       0.0771 
234	23546	5.276       0.38800       0.0778 
235	23646	5.297       0.38994       0.0784 
236	23746	5.317       0.39091       0.0792 
237	23846	5.331       0.39188       0.0800 
238	23946	5.351       0.39479       0.0814 
239	24046	5.360       0.39673       0.0834 
240	24146	5.274       0.39964       0.0891 
241	24158	2.716       0.40061       0.0927 
242	24160	0.285       0.40158       0.1005 
243	24162	0.000       0.40158       0.1214 
